# M_PBH = 100 M_solar.
# Columns: semi-major axis [pc], truncation radius [pc], decoupling redshift
1.000000000000000082e-05 2.749748227558453735e-05 3.590183133767019957e+06
1.019423643066017998e-05 2.789708904243017834e-05 3.538756195569521748e+06
1.039224564041992057e-05 2.830250299123553023e-05 3.488065925208505709e+06
1.059410091039381955e-05 2.871380850978378892e-05 3.438101770334551111e+06
1.079987694508268507e-05 2.913109121201798289e-05 3.388853329755291343e+06
1.100964990002086642e-05 2.955443795585222614e-05 3.340310351270180196e+06
1.122349740996069250e-05 2.998393686124182109e-05 3.292462729536242317e+06
1.144149861760414627e-05 3.041967732851515551e-05 3.245300503964447882e+06
1.166373420289282694e-05 3.086175005697220150e-05 3.198813856646169443e+06
1.189028641286672366e-05 3.131024706375271988e-05 3.152993110309366137e+06
1.212123909210297127e-05 3.176526170297833742e-05 3.107828726304042619e+06
1.235667771374584358e-05 3.222688868517253560e-05 3.063311302616560366e+06
1.259668941113946127e-05 3.269522409696242013e-05 3.019431571912398096e+06
1.284136301007492415e-05 3.317036542106653688e-05 2.976180399606939871e+06
1.309078906166378511e-05 3.365241155657256280e-05 2.933548781963917427e+06
1.334505987585004813e-05 3.414146283950951358e-05 2.891527844221067149e+06
1.360426955557319748e-05 3.463762106371852709e-05 2.850108838742639404e+06
1.386851403159454687e-05 3.514098950202617305e-05 2.809283143198396545e+06
1.413789109800030185e-05 3.565167292772526274e-05 2.769042258768679108e+06
1.441250044839409352e-05 3.616977763636747539e-05 2.729377808375167660e+06
1.469244371279252584e-05 3.669541146787193444e-05 2.690281534937018529e+06
1.497782449523736701e-05 3.722868382895478913e-05 2.651745299651955254e+06
1.526874841213832036e-05 3.776970571588402279e-05 2.613761080302002374e+06
1.556532313136052350e-05 3.831858973756469201e-05 2.576320969583466183e+06
1.586765841207130582e-05 3.887545013895881172e-05 2.539417173460858408e+06
1.617586614536084102e-05 3.944040282484509690e-05 2.503042009544393048e+06
1.649006039565201748e-05 4.001356538392367710e-05 2.467187905490705743e+06
1.681035744291423952e-05 4.059505711326984954e-05 2.431847397426522803e+06
1.713687582569758676e-05 4.118499904314330823e-05 2.397013128394863568e+06
1.746973638500260882e-05 4.178351396215652859e-05 2.362677846823544241e+06
1.780906230900232664e-05 4.239072644280894836e-05 2.328834405015575700e+06
1.815497917863286267e-05 4.300676286739084104e-05 2.295475757661223877e+06
1.850761501406961688e-05 4.363175145426331276e-05 2.262594960371361580e+06
1.886710032210618009e-05 4.426582228451922667e-05 2.230185168231838383e+06
1.923356814445352476e-05 4.490910732903097752e-05 2.198239634378550109e+06
1.960715410697728484e-05 4.556174047589010362e-05 2.166751708592939656e+06
1.998799646989162044e-05 4.622385755824558716e-05 2.135714835917576216e+06
2.037623617892762092e-05 4.689559638254469151e-05 2.105122555291622877e+06
2.077201691749599601e-05 4.757709675718431832e-05 2.074968498205798212e+06
2.117548515986272678e-05 4.826850052157716665e-05 2.045246387376635103e+06
2.158679022535765982e-05 4.896995157563971461e-05 2.015950035439712228e+06
2.200608433363601408e-05 4.968159590970721402e-05 1.987073343661623308e+06
2.243352266101325136e-05 5.040358163488273176e-05 1.958610300670382101e+06
2.286926339789419811e-05 5.113605901382607243e-05 1.930554981204015901e+06
2.331346780731764526e-05 5.187918049198885005e-05 1.902901544877089793e+06
2.376630028463803558e-05 5.263310072930233623e-05 1.875644234964898555e+06
2.422792841836664764e-05 5.339797663232489486e-05 1.848777377205062192e+06
2.469852305219403504e-05 5.417396738685460722e-05 1.822295378616314149e+06
2.517825834821767146e-05 5.496123449101517181e-05 1.796192726334184641e+06
2.566731185139743779e-05 5.575994178882096036e-05 1.770463986463374458e+06
2.616586455526315612e-05 5.657025550422850135e-05 1.745103802946564043e+06
2.667410096889836170e-05 5.739234427568128214e-05 1.720106896449427120e+06
2.719220918522516852e-05 5.822637919115502566e-05 1.695468063261619303e+06
2.772038095061547648e-05 5.907253382371073286e-05 1.671182174213503487e+06
2.825881173585421946e-05 5.993098426756267376e-05 1.647244173608398065e+06
2.880770080848125435e-05 6.080190917466906557e-05 1.623649078170111636e+06
2.936725130653783055e-05 6.168548979185211256e-05 1.600391976005570730e+06
2.993767031374607328e-05 6.258190999845655552e-05 1.577468025582283968e+06
3.051916893614839925e-05 6.349135634455261277e-05 1.554872454720477806e+06
3.111196238023565042e-05 6.441401808969301622e-05 1.532600559599647997e+06
3.171627003259272785e-05 6.535008724223060022e-05 1.510647703779355623e+06
3.233231554109125674e-05 6.629975859920536770e-05 1.489009317234046059e+06
3.296032689765927436e-05 6.726322978680905650e-05 1.467680895401691785e+06
3.360053652265868133e-05 6.824070130143556798e-05 1.446657998246060917e+06
3.425318135090150523e-05 6.923237655132509114e-05 1.425936249332428910e+06
3.491850291933693321e-05 7.023846189881150393e-05 1.405511334916518070e+06
3.559674745644184312e-05 7.125916670318137303e-05 1.385379003046485828e+06
3.628816597334695256e-05 7.229470336415203305e-05 1.365535062677796930e+06
3.699301435673365982e-05 7.334528736598006158e-05 1.345975382800750900e+06
3.771155346353493622e-05 7.441113732220714305e-05 1.326695891580520198e+06
3.844404921747569625e-05 7.549247502105371635e-05 1.307692575509501388e+06
3.919077270748836983e-05 7.658952547146884941e-05 1.288961478571812389e+06
3.995200028804006537e-05 7.770251694984632877e-05 1.270498701419758145e+06
4.072801368140840320e-05 7.883168104741657318e-05 1.252300400562086375e+06
4.151910008194389885e-05 7.997725271832336984e-05 1.234362787563882535e+06
4.232555226235785274e-05 8.113947032839677689e-05 1.216682128257907461e+06
4.314766868207398488e-05 8.231857570462952406e-05 1.199254741967258975e+06
4.398575359768539368e-05 8.351481418537019287e-05 1.182077000739143463e+06
4.484011717555664938e-05 8.472843467124115894e-05 1.165145328589635901e+06
4.571107560661308918e-05 8.595968967679262621e-05 1.148456200759254629e+06
4.659895122335969966e-05 8.720883538290275492e-05 1.132006142979203956e+06
4.750407261917302220e-05 8.847613168993557911e-05 1.115791730748119531e+06
4.842677476991003916e-05 8.976184227166629536e-05 1.099809588619181653e+06
4.936739915787921807e-05 9.106623462998571336e-05 1.084056389497437514e+06
5.032629389821950108e-05 9.238958015039507640e-05 1.068528853947185678e+06
5.130381386773393498e-05 9.373215415830156503e-05 1.053223749509291491e+06
5.230032083622622246e-05 9.509423597612818582e-05 1.038137890028263209e+06
5.331618360038730347e-05 9.647610898124597302e-05 1.023268134988993639e+06
5.435177812028351346e-05 9.787806066474456334e-05 1.008611388862977619e+06
5.540748765849530429e-05 9.930038269104961377e-05 9.941646004639106104e+05
5.648370292195871851e-05 1.007433709584012928e-04 9.799247623125108657e+05
5.758082220656184167e-05 1.022073256602052294e-04 9.658889100104408571e+05
5.869925154454994136e-05 1.036925513472681566e-04 9.520541216232015286e+05
5.983940485479356407e-05 1.051993569909318856e-04 9.384175170718594454e+05
6.100170409597602256e-05 1.067280560471175479e-04 9.249762575334904250e+05
6.218657942275511408e-05 1.082789665212928053e-04 9.117275448502151994e+05
6.339446934495928331e-05 1.098524110343763126e-04 8.986686209466946311e+05
6.462582088987538773e-05 1.114487168895922662e-04 8.857967672559692292e+05
6.588108976768874026e-05 1.130682161402875617e-04 8.731093041535292286e+05
6.716074054013661861e-05 1.147112456587270505e-04 8.606035903994846158e+05
6.846524679243768481e-05 1.163781472058797044e-04 8.482770225887272973e+05
6.979509130856082866e-05 1.180692675022093863e-04 8.361270346089733066e+05
7.115076624989844672e-05 1.197849582994854232e-04 8.241510971065658377e+05
7.253277333741015758e-05 1.215255764536276158e-04 8.123467169599269982e+05
7.394162403730439076e-05 1.232914839985991022e-04 8.007114367605565349e+05
7.537783975032654707e-05 1.250830482213625939e-04 7.892428343014665879e+05
7.684195200472439323e-05 1.269006417379164907e-04 7.779385220729346620e+05
7.833450265296024238e-05 1.287446425704226786e-04 7.667961467654939042e+05
7.985604407224538095e-05 1.306154342254455805e-04 7.558133887800306547e+05
8.140713936896888192e-05 1.325134057733148613e-04 7.449879617449073121e+05
8.298836258709730857e-05 1.344389519286303932e-04 7.343176120399947977e+05
8.460029892062238192e-05 1.363924731319225746e-04 7.238001183275323128e+05
8.624354493013497251e-05 1.383743756324875445e-04 7.134332910896989051e+05
8.791870876360582379e-05 1.403850715724112787e-04 7.032149721728152363e+05
8.962641038145529790e-05 1.424249790718017041e-04 6.931430343380674021e+05
9.136728178599313392e-05 1.444945223152426818e-04 6.832153808186755050e+05
9.314196725531655380e-05 1.465941316394903777e-04 6.734299448833995266e+05
9.495112358175055204e-05 1.487242436224280387e-04 6.637846894062969368e+05
9.679542031491984277e-05 1.508853011732963609e-04 6.542776064426471712e+05
9.867554000954203302e-05 1.530777536242180147e-04 6.449067168109492632e+05
1.005921784780339624e-04 1.553020568230349771e-04 6.356700696809057845e+05
1.025460450480244643e-04 1.575586732274759352e-04 6.265657421673105564e+05
1.045378628248689988e-04 1.598480720006736574e-04 6.175918389297520043e+05
1.065683689592636000e-04 1.621707291080498148e-04 6.087464917780532269e+05
1.086383149200560554e-04 1.645271274155879601e-04 6.000278592833611183e+05
1.107484667723567732e-04 1.669177567895129347e-04 5.914341263948082924e+05
1.128996054610517826e-04 1.693431141973975452e-04 5.829635040616631741e+05
1.150925270998215150e-04 1.718037038107141036e-04 5.746142288608981762e+05
1.173280432657744526e-04 1.743000371088538670e-04 5.663845626300881850e+05
1.196069812998031679e-04 1.768326329846337604e-04 5.582727921055669431e+05
1.219301846127744421e-04 1.794020178513094075e-04 5.502772285657714820e+05
1.242985129976666527e-04 1.820087257511181613e-04 5.423962074796912493e+05
1.267128429477700055e-04 1.846532984653721093e-04 5.346280881603532471e+05
1.291740679810678713e-04 1.873362856261218178e-04 5.269712534232736798e+05
1.316830989709176763e-04 1.900582448294138788e-04 5.194241092497995123e+05
1.342408644831557846e-04 1.928197417501637304e-04 5.119850844552739873e+05
1.368483111197502848e-04 1.956213502586669488e-04 5.046526303619529936e+05
1.395064038691276912e-04 1.984636525387695335e-04 4.974252204766108189e+05
1.422161264633053988e-04 2.013472392077226625e-04 4.903013501727607218e+05
1.449784817419603219e-04 2.042727094377437655e-04 4.832795363774287398e+05
1.477944920235693498e-04 2.072406710793079287e-04 4.763583172624131548e+05
1.506651994837586081e-04 2.102517407861919675e-04 4.695362519399698358e+05
1.535916665410013890e-04 2.133065441422982438e-04 4.628119201628525043e+05
1.565749762498086495e-04 2.164057157902802100e-04 4.561839220286512864e+05
1.596162327015551935e-04 2.195498995619939132e-04 4.496508776883693063e+05
1.627165614330925130e-04 2.227397486108034297e-04 4.432114270591694512e+05
1.658771098432986933e-04 2.259759255457635695e-04 4.368642295412368840e+05
1.690990476177175778e-04 2.292591025677040808e-04 4.306079637387002585e+05
1.723835671614477091e-04 2.325899616072442226e-04 4.244413271845481941e+05
1.757318840404386065e-04 2.359691944647628319e-04 4.183630360694854171e+05
1.791452374313589637e-04 2.393975029523496070e-04 4.123718249746747897e+05
1.826248905802027285e-04 2.428755990377655534e-04 4.064664466083066072e+05
1.861721312698029897e-04 2.464042049904389378e-04 4.006456715459424304e+05
1.897882722964274913e-04 2.499840535295262136e-04 3.949082879745758255e+05
1.934746519556293325e-04 2.536158879740622852e-04 3.892531014403632726e+05
1.972326345375375429e-04 2.573004623952326376e-04 3.836789345999644138e+05
2.010636108317650475e-04 2.610385417707911560e-04 3.781846269754485111e+05
2.049689986421260042e-04 2.648309021416580047e-04 3.727690347127073328e+05
2.089502433113498109e-04 2.686783307707211479e-04 3.674310303433321533e+05
2.130088182559870737e-04 2.725816263038746321e-04 3.621695025499004987e+05
2.171462255117056746e-04 2.765415989333234494e-04 3.569833559346235706e+05
2.213639962891780842e-04 2.805590705631826249e-04 3.518715107913102838e+05
2.256636915407661905e-04 2.846348749774031662e-04 3.468329028805967537e+05
2.300469025382140319e-04 2.887698580100577775e-04 3.418664832083929796e+05
2.345152514615590951e-04 2.929648777180097596e-04 3.369712178075091215e+05
2.390703919994858768e-04 2.972208045560088959e-04 3.321460875224021147e+05
2.437140099613368952e-04 3.015385215542331363e-04 3.273900877970130532e+05
2.484478239010138754e-04 3.059189244983187951e-04 3.227022284656387055e+05
2.532735857529960603e-04 3.103629221119064792e-04 3.180815335468002595e+05
2.581930814807127336e-04 3.148714362417365698e-04 3.135270410400651745e+05
2.632081317375094287e-04 3.194454020453289019e-04 3.090378027257786598e+05
2.683205925404522573e-04 3.240857681812782430e-04 3.046128839676649659e+05
2.735323559572201842e-04 3.287934970022022728e-04 3.002513635182547732e+05
2.788453508063401987e-04 3.335695647503742096e-04 2.959523333271008451e+05
2.842615433710208206e-04 3.384149617560751051e-04 2.917148983517407905e+05
2.897829381268549379e-04 3.433306926387029380e-04 2.875381763713666005e+05
2.954115784836529421e-04 3.483177765106698978e-04 2.834212978031652747e+05
3.011495475416883804e-04 3.533772471841295439e-04 2.793634055212875828e+05
3.069989688626309694e-04 3.585101533805631143e-04 2.753636546784124803e+05
3.129620072554542836e-04 3.637175589432666174e-04 2.714212125298661995e+05
3.190408695776087941e-04 3.690005430527754614e-04 2.675352582602598122e+05
3.252378055517559188e-04 3.743602004452571404e-04 2.637049828126133070e+05
3.315551085983681786e-04 3.797976416339221778e-04 2.599295887199222634e+05
3.379951166844977358e-04 3.853139931334752808e-04 2.562082899391428218e+05
3.445602131890341830e-04 3.909103976876580964e-04 2.525403116875511769e+05
3.512528277847690389e-04 3.965880144999189166e-04 2.489248902814463072e+05
3.580754373375898787e-04 4.023480194672394701e-04 2.453612729771673330e+05
3.650305668231435636e-04 4.081916054171726886e-04 2.418487178143836500e+05
3.721207902613025043e-04 4.141199823481186049e-04 2.383864934616324026e+05
3.793487316687826363e-04 4.201343776728842989e-04 2.349738790640679945e+05
3.867170660302636856e-04 4.262360364655671955e-04 2.316101640933918825e+05
3.942285202883728714e-04 4.324262217118012312e-04 2.282946481999326497e+05
4.018858743528986688e-04 4.387062145624084464e-04 2.250266410668439057e+05
4.096919621296039112e-04 4.450773145904929730e-04 2.218054622663924238e+05
4.176496725690254552e-04 4.515408400520240940e-04 2.186304411183035991e+05
4.257619507356455164e-04 4.580981281499500062e-04 2.155009165501347452e+05
4.340317988978262351e-04 4.647505353018762243e-04 2.124162369596513454e+05
4.424622776389193078e-04 4.714994374113620746e-04 2.093757600791722653e+05
4.510565069899550900e-04 4.783462301428689453e-04 2.063788528418593050e+05
4.598176675843328176e-04 4.852923292004106531e-04 2.034248912499207072e+05
4.687490018349398276e-04 4.923391706099412716e-04 2.005132602447039098e+05
4.778538151341334031e-04 4.994882110055296441e-04 1.976433535786484426e+05
4.871354770770337794e-04 5.067409279193626484e-04 1.948145736890722765e+05
4.965974227085724526e-04 5.140988200756177072e-04 1.920263315737678204e+05
5.062431537947676904e-04 5.215634076882550698e-04 1.892780466683779086e+05
5.160762401186925856e-04 5.291362327627697083e-04 1.865691467255286989e+05
5.261003208016106934e-04 5.368188594019445694e-04 1.838990676956951211e+05
5.363191056497786926e-04 5.446128741156584189e-04 1.812672536097709963e+05
5.467363765274060742e-04 5.525198861347853548e-04 1.786731564633219095e+05
5.573559887562824083e-04 5.605415277292322878e-04 1.761162361024967977e+05
5.681818725425919576e-04 5.686794545301662122e-04 1.735959601115714177e+05
5.792180344314403883e-04 5.769353458564645525e-04 1.711118037021053024e+05
5.904685587896372004e-04 5.853109050454453986e-04 1.686632496036844677e+05
6.019376093172726155e-04 5.938078597879172015e-04 1.662497879562294402e+05
6.136294305886635502e-04 6.024279624675948778e-04 1.638709162038461072e+05
6.255483496232216176e-04 6.111729905049242788e-04 1.615261389901973307e+05
6.376987774868396854e-04 6.200447467053718390e-04 1.592149680553716025e+05
6.500852109243800744e-04 6.290450596122108438e-04 1.569369221342303790e+05
6.627122340238723094e-04 6.381757838638591786e-04 1.546915268562108686e+05
6.755845199130353822e-04 6.474388005558123597e-04 1.524783146465636091e+05
6.887068324887533639e-04 6.568360176072159757e-04 1.502968246290051029e+05
7.020840281801419853e-04 6.663693701321244832e-04 1.481466025297644373e+05
7.157210577458651647e-04 6.760408208154939551e-04 1.460272005830037524e+05
7.296229681063529787e-04 6.858523602939467284e-04 1.439381774375945970e+05
7.437949042116195203e-04 6.958060075413645450e-04 1.418790980652278231e+05
7.582421109453490538e-04 7.059038102593426060e-04 1.398495336698413012e+05
7.729699350659754737e-04 7.161478452725633008e-04 1.378490615983429889e+05
7.879838271854601233e-04 7.265402189291211626e-04 1.358772652526141028e+05
8.032893437865053395e-04 7.370830675058529348e-04 1.339337340027717291e+05
8.188921492789501960e-04 7.477785576187114544e-04 1.320180631016740226e+05
8.347980180961089066e-04 7.586288866382280213e-04 1.301298536006501236e+05
8.510128368318261140e-04 7.696362831101147533e-04 1.282687122664356866e+05
8.675426064190469317e-04 7.808030071810346823e-04 1.264342514992994693e+05
8.843934443506925539e-04 7.921313510295919591e-04 1.246260892523423099e+05
9.015715869436866786e-04 8.036236393025919305e-04 1.228438489519502473e+05
9.190833916469442685e-04 8.152822295565920153e-04 1.210871594193889323e+05
9.369353393941997699e-04 8.271095127048047439e-04 1.193556547935194249e+05
9.551340370025310916e-04 8.391079134693810431e-04 1.176489744546215370e+05
9.736862196174731615e-04 8.512798908391211450e-04 1.159667629493073619e+05
9.925987532056234405e-04 8.636279385326468393e-04 1.143086699165106984e+05
1.011878637095662810e-03 8.761545854670752930e-04 1.126743500145360595e+05
1.031533006568737800e-03 8.888623962322372623e-04 1.110634628491518961e+05
1.051569135499145352e-03 9.017539715704639847e-04 1.094756729027145630e+05
1.071994439046321810e-03 9.148319488619920808e-04 1.079106494643062761e+05
1.092816476399112793e-03 9.280990026160185593e-04 1.063680665608733543e+05
1.114042953573352642e-03 9.415578449674296682e-04 1.048476028893513285e+05
1.135681726263773877e-03 9.552112261792486967e-04 1.033489417497613322e+05
1.157740802751320479e-03 9.690619351508313484e-04 1.018717709792644455e+05
1.180228346866927288e-03 9.831127999318362270e-04 1.004157828871602978e+05
1.203152681012865759e-03 9.973666882419965612e-04 9.898067419081699336e+04
1.226522289242782358e-03 1.011826507996740768e-03 9.756614595251684659e+04
1.250345820401549358e-03 1.026495207838652420e-03 9.617190351720835315e+04
1.274632091326116526e-03 1.041375777674836186e-03 9.479765645114758809e+04
1.299390090108527287e-03 1.056471249220179232e-03 9.344311848141926748e+04
1.324628979422314739e-03 1.071784696546552746e-03 9.210800743632284866e+04
1.350358099913517634e-03 1.087319236637964218e-03 9.079204518661227485e+04
1.376586973657544085e-03 1.103078029951669791e-03 8.949495758757775184e+04
1.403325307683198119e-03 1.119064280985290500e-03 8.821647442195510666e+04
1.430582997565146494e-03 1.135281238849916979e-03 8.695632934365373512e+04
1.458370131086164558e-03 1.151732197849231719e-03 8.571425982228951761e+04
1.486696991970523976e-03 1.168420498064662088e-03 8.449000708851145464e+04
1.515574063689882145e-03 1.185349525946557828e-03 8.328331608011150092e+04
1.545012033343108777e-03 1.202522714911412110e-03 8.209393538890537457e+04
1.575021795611468217e-03 1.219943545945126372e-03 8.092161720837364555e+04
1.605614456790622471e-03 1.237615548212319576e-03 7.976611728205221880e+04
