# M_PBH = 1000 M_solar.
# Columns: semi-major axis [pc], truncation radius [pc], decoupling redshift
1.000000000000000082e-05 3.331409919983283015e-05 6.384322908150793985e+06
1.020989717887985886e-05 3.383717283804667166e-05 6.285630515906453133e+06
1.042420004032989076e-05 3.436845933783538696e-05 6.188463775488408282e+06
1.064300105838434694e-05 3.490808764831235321e-05 6.092799102450827137e+06
1.086639464808136928e-05 3.545618874311276699e-05 5.998613276931098662e+06
1.109447720620411709e-05 3.601289565217522854e-05 5.905883438013895415e+06
1.132734715287703221e-05 3.657834349402229614e-05 5.814587078182321973e+06
1.156510497403520192e-05 3.715266950854736284e-05 5.724702037854893133e+06
1.180785326478514442e-05 3.773601309031632603e-05 5.636206500006914139e+06
1.205569677367571766e-05 3.832851582239176109e-05 5.549078984875028022e+06
1.230874244789827242e-05 3.893032151068790011e-05 5.463298344743628055e+06
1.256709947943553486e-05 3.954157621886468266e-05 5.378843758811859414e+06
1.283087935217914059e-05 4.016242830376949140e-05 5.295694728139971383e+06
1.310019589003616457e-05 4.079302845143510360e-05 5.213831070673771203e+06
1.337516530604537683e-05 4.143352971364216650e-05 5.133232916346053593e+06
1.365590625252444575e-05 4.208408754505611000e-05 5.053880702253653668e+06
1.394253987226971702e-05 4.274485984094585593e-05 4.975755167909184471e+06
1.423518985083065378e-05 4.341600697549542986e-05 4.898837350566045381e+06
1.453398246988150966e-05 4.409769184071580774e-05 4.823108580615808256e+06
1.483904666171325542e-05 4.479007988596790007e-05 4.748550477056688629e+06
1.515051406486927627e-05 4.549333915810566592e-05 4.675144943032075651e+06
1.546851908094884628e-05 4.620764034224869436e-05 4.602874161438063718e+06
1.579319893260288987e-05 4.693315680319499371e-05 4.531720590598847717e+06
1.612469372274706342e-05 4.767006462748316374e-05 4.461666960008999333e+06
1.646314649501770359e-05 4.841854266611493498e-05 4.392696266141527332e+06
1.680870329549667501e-05 4.917877257794737241e-05 4.324791768320797943e+06
1.716151323573204460e-05 4.995093887376692699e-05 4.257936984659158625e+06
1.752172855708096071e-05 5.073522896105336514e-05 4.192115688056514133e+06
1.788950469640395645e-05 5.153183318944791458e-05 4.127311902261581272e+06
1.826500035313727391e-05 5.234094489693299237e-05 4.063509897994177882e+06
1.864837755777358741e-05 5.316276045673750821e-05 4.000694189127359074e+06
1.903980174177990440e-05 5.399747932497762942e-05 3.938849528928612825e+06
1.943944180898304590e-05 5.484530408904482560e-05 3.877960906359157525e+06
1.984747020845352140e-05 5.570644051675316643e-05 3.818013542430441827e+06
2.026406300891916558e-05 5.658109760625740594e-05 3.758992886616975069e+06
2.068939997474074786e-05 5.746948763675440960e-05 3.700884613324592821e+06
2.112366464348226037e-05 5.837182621997951846e-05 3.643674618413341232e+06
2.156704440510937606e-05 5.928833235251080658e-05 3.587349015774103813e+06
2.201973058285028686e-05 6.021922846889389645e-05 3.531894133958141785e+06
2.248191851575376889e-05 6.116474049559997707e-05 3.477296512858738657e+06
2.295380764298012800e-05 6.212509790582971658e-05 3.423542900444165803e+06
2.343560158986137689e-05 6.310053377517761122e-05 3.370620249541106634e+06
2.392750825576780150e-05 6.409128483816849370e-05 3.318515714667845052e+06
2.442973990381882302e-05 6.509759154568112215e-05 3.267216648916393518e+06
2.494251325247685144e-05 6.611969812327229393e-05 3.216710600882819388e+06
2.546604956906369044e-05 6.715785263041583626e-05 3.166985311645012815e+06
2.600057476523980220e-05 6.821230702067001281e-05 3.118028711787203792e+06
2.654631949448767249e-05 6.928331720278910763e-05 3.069828918470443226e+06
2.710351925164130923e-05 7.037114310279302381e-05 3.022374232548388187e+06
2.767241447450485636e-05 7.147604872700998057e-05 2.975653135727673303e+06
2.825325064760413142e-05 7.259830222610800284e-05 2.929654287772177719e+06
2.884627840811589854e-05 7.373817596013044974e-05 2.884366523750497960e+06
2.945175365402055202e-05 7.489594656455101837e-05 2.839778851325989701e+06
3.006993765452489899e-05 7.607189501736448599e-05 2.795880448088692036e+06
3.070109716280270215e-05 7.726630670722946703e-05 2.752660658928492106e+06
3.134550453110157494e-05 7.847947150267919067e-05 2.710108993448911700e+06
3.200343782826598409e-05 7.971168382241760535e-05 2.668215123420854565e+06
3.267518095972698149e-05 8.096324270671711402e-05 2.626968880275735166e+06
3.336102379001054441e-05 8.223445188993605993e-05 2.586360252637338359e+06
3.406126226781725034e-05 8.352561987417226642e-05 2.546379383891855367e+06
3.477619855372743546e-05 8.483706000407178073e-05 2.507016569795463700e+06
3.550614115058675836e-05 8.616909054280962662e-05 2.468262256118904334e+06
3.625140503662858141e-05 8.752203474926149905e-05 2.430107036328469869e+06
3.701231180139052414e-05 8.889622095638533353e-05 2.392541649302830454e+06
3.778918978448388453e-05 9.029198265083096476e-05 2.355556977085162420e+06
3.858237421727576266e-05 9.170965855379707872e-05 2.319144042670033872e+06
3.939220736754508317e-05 9.314959270315616613e-05 2.283294007824478671e+06
4.021903868717489205e-05 9.461213453686521783e-05 2.247998170942781959e+06
4.106322496294468553e-05 9.609763897768432031e-05 2.213247964934404939e+06
4.192513047048779620e-05 9.760646651922213850e-05 2.179034955144572537e+06
4.280512713148033860e-05 9.913898331332968530e-05 2.145350837307000998e+06
4.370359467412948364e-05 1.006955612588633029e-04 2.112187435528274160e+06
4.462092079703034234e-05 1.022765780918381064e-04 2.079536700303378981e+06
4.555750133646217613e-05 1.038824174769938850e-04 2.047390706561916508e+06
4.651374043719596523e-05 1.055134691007948207e-04 2.015741651744523086e+06
4.749005072688780631e-05 1.071701287658873762e-04 1.984581853909001686e+06
4.848685349413122146e-05 1.088527984870341092e-04 1.953903749865793157e+06
4.950457887024924635e-05 1.105618865885558809e-04 1.923699893342163879e+06
5.054366601489922373e-05 1.122978078032927350e-04 1.893962953174904687e+06
5.160456330557664553e-05 1.140609833731219346e-04 1.864685711530834669e+06
5.268772853109330049e-05 1.158518411510430098e-04 1.835861062154936604e+06
5.379362908911973680e-05 1.176708157048676821e-04 1.807482008645462338e+06
5.492274218787131484e-05 1.195183484225275137e-04 1.779541662755799014e+06
5.607555505202931642e-05 1.213948876190345036e-04 1.752033242722515250e+06
5.725256513298362953e-05 1.233008886451136463e-04 1.724950071619293652e+06
5.845428032348850194e-05 1.252368139975368062e-04 1.698285575736294035e+06
5.968121917682377142e-05 1.272031334311839569e-04 1.672033282984567573e+06
6.093391113055635224e-05 1.292003240728570063e-04 1.646186821325151250e+06
6.221289673499834317e-05 1.312288705368765238e-04 1.620739917222423712e+06
6.351872788646035844e-05 1.332892650424859281e-04 1.595686394121392164e+06
6.485196806540090557e-05 1.353820075330936141e-04 1.571020170948504237e+06
6.621319257957434189e-05 1.375076057973804230e-04 1.546735260635640938e+06
6.760298881228248230e-05 1.396665755923018630e-04 1.522825768666925607e+06
6.902195647583697082e-05 1.418594407680148989e-04 1.499285891647995217e+06
7.047070787034162890e-05 1.440867333947579035e-04 1.476109915897395695e+06
7.194986814790676501e-05 1.463489938917164612e-04 1.453292216059740633e+06
7.346007558240911063e-05 1.486467711579035113e-04 1.430827253740319517e+06
7.500198184491400205e-05 1.509806227050864910e-04 1.408709576160808094e+06
7.657625228487859590e-05 1.533511147927929497e-04 1.386933814835761907e+06
7.818356621725742713e-05 1.557588225654274016e-04 1.365494684269564459e+06
7.982461721563432859e-05 1.582043301915311861e-04 1.344386980673523620e+06
8.150011341150695395e-05 1.606882310052189721e-04 1.323605580702802632e+06
8.321077779985334424e-05 1.632111276498271707e-04 1.303145440212866059e+06
8.495734855111214650e-05 1.657736322238059410e-04 1.283001593035159865e+06
8.674057932971129163e-05 1.683763664288916531e-04 1.263169149771713419e+06
8.856123961928239136e-05 1.710199617205947729e-04 1.243643296608373057e+06
9.042011505470144825e-05 1.737050594610379183e-04 1.224419294146388536e+06
9.231800776109885798e-05 1.764323110741827642e-04 1.205492476252051769e+06
9.425573669998522019e-05 1.792023782034800859e-04 1.186858248924128246e+06
9.623413802264219833e-05 1.820159328719830828e-04 1.168512089178788476e+06
9.825406543093094872e-05 1.848736576449595435e-04 1.150449543951785890e+06
1.003163905456739050e-04 1.877762457950451103e-04 1.132666229017591802e+06
1.024220032827686183e-04 1.907244014699719845e-04 1.115157827925256221e+06
1.045718122371962964e-04 1.937188398629185006e-04 1.097920090950702783e+06
1.067667450750904790e-04 1.967602873855151587e-04 1.080948834065231960e+06
1.090077489340351448e-04 1.998494818435516481e-04 1.064239937919962686e+06
1.112957908317649397e-04 2.029871726154248697e-04 1.047789346845975611e+06
1.136318580834439775e-04 2.061741208333711358e-04 1.031593067869911320e+06
1.160169587277031108e-04 2.094110995675243147e-04 1.015647169744789484e+06
1.184521219616197147e-04 2.126988940128453234e-04 9.999477819958071923e+05
1.209383985848274155e-04 2.160383016789660360e-04 9.844910939808875555e+05
1.234768614529477347e-04 2.194301325829927393e-04 9.692733539657536894e+05
1.260686059405388877e-04 2.228752094453152408e-04 9.542908682132980321e+05
1.287147504137624754e-04 2.263743678884675445e-04 9.395400000870296499e+05
1.314164367129698810e-04 2.299284566390865270e-04 9.250171691683839308e+05
1.341748306454194786e-04 2.335383377330181056e-04 9.107188503876724280e+05
1.369911224883351114e-04 2.372048867236176833e-04 8.966415731684698258e+05
1.398665275025237772e-04 2.409289928932941750e-04 8.827819205852283631e+05
1.428022864567739974e-04 2.447115594683486515e-04 8.691365285339119146e+05
1.457996661632610330e-04 2.485535038371566104e-04 8.557020849154535681e+05
1.488599600241903988e-04 2.524557577717465636e-04 8.424753288318346022e+05
1.519844885899150275e-04 2.564192676528272282e-04 8.294530497945881216e+05
1.551746001287671582e-04 2.604449946983131126e-04 8.166320869455465581e+05
1.584316712088510066e-04 2.645339151954089417e-04 8.040093282896227902e+05
1.617571072920469136e-04 2.686870207362978082e-04 7.915817099394653924e+05
1.651523433404834926e-04 2.729053184574984801e-04 7.793462153717788169e+05
1.686188444357400191e-04 2.771898312829404920e-04 7.672998746951451758e+05
1.721581064110443919e-04 2.815415981708163803e-04 7.554397639291665982e+05
1.757716564967420816e-04 2.859616743642707463e-04 7.437630042947450420e+05
1.794610539793126732e-04 2.904511316459808474e-04 7.322667615153407678e+05
1.832278908742190394e-04 2.950110585966931698e-04 7.209482451290232129e+05
1.870737926128795752e-04 2.996425608577694358e-04 7.098047078111678129e+05
1.910004187440595086e-04 3.043467613978126265e-04 6.988334447076102952e+05
1.950094636499844836e-04 3.091248007834237598e-04 6.880317927781230537e+05
1.991026572774851164e-04 3.139778374541634222e-04 6.773971301500287373e+05
2.032817658844878633e-04 3.189070480017739437e-04 6.669268754818139132e+05
2.075485928021748871e-04 3.239136274537318758e-04 6.566184873365756357e+05
2.119049792131410018e-04 3.289987895611926278e-04 6.464694635651577264e+05
2.163528049458843391e-04 3.341637670913990871e-04 6.364773406988179777e+05
2.208939892859729118e-04 3.394098121246154841e-04 6.266396933512894902e+05
2.255304918042372450e-04 3.447381963556609297e-04 6.169541336300811963e+05
2.302643132023469139e-04 3.501502114001086544e-04 6.074183105568805477e+05
2.350974961761350117e-04 3.556471691052232650e-04 5.980299094969154103e+05
2.400321262970439443e-04 3.612304018657065468e-04 5.887866515971384943e+05
2.450703329120723227e-04 3.669012629443255363e-04 5.796862932330945041e+05
2.502142900626114761e-04 3.726611267974955601e-04 5.707266254643399734e+05
2.554662174225683763e-04 3.785113894058935390e-04 5.619054734982802765e+05
2.608283812561789749e-04 3.844534686101760404e-04 5.532206961622969247e+05
2.663030953959261995e-04 3.904888044518816065e-04 5.446701853840323165e+05
2.718927222409841193e-04 3.966188595195929809e-04 5.362518656797097065e+05
2.775996737766188720e-04 4.028451193004370791e-04 5.279636936503648758e+05
2.834264126149870248e-04 4.091690925370068915e-04 5.198036574858623208e+05
2.893754530577794708e-04 4.155923115897821349e-04 5.117697764765809407e+05
2.954493621811704000e-04 4.221163328051343033e-04 5.038601005326467566e+05
3.016507609435385272e-04 4.287427368889957548e-04 4.960727097106003202e+05
3.079823253164396869e-04 4.354731292862829830e-04 4.884057137473766343e+05
3.144467874393176536e-04 4.423091405661524643e-04 4.808572516014950234e+05
3.210469367984524120e-04 4.492524268131837823e-04 4.734254910013356712e+05
3.277856214306539852e-04 4.563046700245717820e-04 4.661086280004033470e+05
3.346657491522215893e-04 4.634675785134203412e-04 4.589048865394643508e+05
3.416902888136981800e-04 4.707428873182271543e-04 4.518125180154525442e+05
3.488622715809621137e-04 4.781323586186506536e-04 4.448298008570402744e+05
3.561847922432084313e-04 4.856377821576548051e-04 4.379550401067684870e+05
3.636610105483838759e-04 4.932609756701210064e-04 4.311865670096384711e+05
3.712941525666543373e-04 5.010037853180273780e-04 4.245227386080622091e+05
3.790875120824872108e-04 5.088680861322872773e-04 4.179619373430755804e+05
3.870444520159570701e-04 5.168557824613504706e-04 4.115025706617143005e+05
3.951684058738821328e-04 5.249688084266606897e-04 4.051430706304609776e+05
4.034628792314200315e-04 5.332091283850738227e-04 3.988818935546666034e+05
4.119314512447620801e-04 5.415787373983349095e-04 3.927175196038567228e+05
4.205777761955782385e-04 5.500796617097226905e-04 3.866484524428272853e+05
4.294055850678799393e-04 5.587139592279584182e-04 3.806732188684461871e+05
4.384186871579802999e-04 5.674837200184897372e-04 3.747903684520679526e+05
4.476209717182474523e-04 5.763910668022575101e-04 3.689984731874754070e+05
4.570164096353595716e-04 5.854381554620491325e-04 3.632961271442648722e+05
4.666090551437860126e-04 5.946271755565514169e-04 3.576819461265893187e+05
4.764030475752332214e-04 6.039603508422130944e-04 3.521545673371768789e+05
4.864026131448140919e-04 6.134399398030316404e-04 3.467126490465416573e+05
4.966120667747029628e-04 6.230682361883703533e-04 3.413548702673115185e+05
5.070358139560735217e-04 6.328475695589326445e-04 3.360799304335865309e+05
5.176783526501168306e-04 6.427803058410008763e-04 3.308865490852558869e+05
5.285442752289601061e-04 6.528688478890595521e-04 3.257734655571948970e+05
5.396382704573259676e-04 6.631156360569228801e-04 3.207394386732670828e+05
5.509651255157858559e-04 6.735231487774911768e-04 3.157832464450538973e+05
5.625297280664809992e-04 6.840939031512495178e-04 3.109036857752447831e+05
5.743370683622018181e-04 6.948304555436387404e-04 3.060995721656110254e+05
5.863922413997373637e-04 7.057354021914231555e-04 3.013697394294932019e+05
5.987004491184215677e-04 7.168113798181774843e-04 2.967130394087343593e+05
6.112670026448276898e-04 7.280610662590234492e-04 2.921283416949885432e+05
6.240973245845774214e-04 7.394871810947455798e-04 2.876145333553370438e+05
6.371969513622545217e-04 7.510924862954137388e-04 2.831705186621467583e+05
6.505715356104329206e-04 7.628797868736456132e-04 2.787952188271047780e+05
6.642268486088496061e-04 7.748519315476468669e-04 2.744875717393626110e+05
6.781687827747753805e-04 7.870118134141527695e-04 2.702465317077307845e+05
6.924033542056567394e-04 7.993623706314183187e-04 2.660710692068569479e+05
7.069367052751285773e-04 8.119065871123875037e-04 2.619601706273283344e+05
7.217751072835158592e-04 8.246474932281830893e-04 2.579128380296372052e+05
7.369249631639675484e-04 8.375881665220569986e-04 2.539280889019491151e+05
7.523928102453937301e-04 8.507317324339411582e-04 2.500049559216160560e+05
7.681853230733934551e-04 8.640813650357411597e-04 2.461424867203767353e+05
7.843093162903953114e-04 8.776402877775210578e-04 2.423397436531852582e+05
8.007717475762497457e-04 8.914117742447213348e-04 2.385958035706136434e+05
8.175797206505447997e-04 9.053991489265515204e-04 2.349097575947741570e+05
8.347404883379380604e-04 9.196057879957204211e-04 2.312807108987027605e+05
8.522614556978309148e-04 9.340351200996340657e-04 2.277077824891556520e+05
8.701501832197326616e-04 9.486906271632321265e-04 2.241901049927604909e+05
8.884143900856941289e-04 9.635758452035901025e-04 2.207268244454767846e+05
9.070619575012199348e-04 9.786943651564701703e-04 2.173171000853071746e+05
9.261009320960947658e-04 9.940498337149439746e-04 2.139601041482160508e+05
9.455395293965925506e-04 1.009645954180268205e-03 2.106550216672005772e+05
9.653861373705660293e-04 1.025486487325150868e-03 2.074010502744693949e+05
9.856493200469467440e-04 1.041575252269577069e-03 2.041974000066783046e+05
1.006337821211216160e-03 1.057916127369349767e-03 2.010432931131763326e+05
1.027460568178450041e-03 1.074513051117499370e-03 1.979379638672171568e+05
1.049026675645545366e-03 1.091370023058734319e-03 1.948806583800870285e+05
1.071045449624317232e-03 1.108491104717076884e-03 1.918706344181082968e+05
1.093526391457142572e-03 1.125880420536872146e-03 1.889071612224683922e+05
1.116479201916895179e-03 1.143542158837300947e-03 1.859895193318372767e+05
1.139913785392934493e-03 1.161480572780593246e-03 1.831170004077237973e+05
1.163840254164958364e-03 1.179699981354076109e-03 1.802889070625344175e+05
1.188268932766562693e-03 1.198204770366253884e-03 1.775045526902867132e+05
1.213210362440391007e-03 1.216999393457054339e-03 1.747632612999423291e+05
1.238675305686796034e-03 1.236088373122429642e-03 1.720643673513148096e+05
1.264674750907976561e-03 1.255476301753473498e-03 1.694072155935139162e+05
1.291219917149593818e-03 1.275167842690219698e-03 1.667911609058870235e+05
1.318322258941912427e-03 1.295167731290285552e-03 1.642155681414203427e+05
1.345993471242555367e-03 1.315480776012544753e-03 1.616798119725587894e+05
1.374245494483007559e-03 1.336111859515978859e-03 1.591832767394105031e+05
1.403090519721041660e-03 1.357065939773888664e-03 1.567253563002970768e+05
1.432540993901293891e-03 1.378348051203626568e-03 1.543054538846139912e+05
1.462609625226256966e-03 1.399963305812027990e-03 1.519229819479650178e+05
1.493309388640008803e-03 1.421916894356695105e-03 1.495773620295365108e+05
1.524653531427043376e-03 1.444214087523324613e-03 1.472680246116748021e+05
1.556655578928618474e-03 1.466860237119212672e-03 1.449944089816361084e+05
1.589329340379087982e-03 1.489860777283145803e-03 1.427559630954711174e+05
1.622688914864743809e-03 1.513221225711813096e-03 1.405521434440145385e+05
1.656748697407716851e-03 1.536947184902908835e-03 1.383824149209465249e+05
1.691523385177592844e-03 1.561044343415117020e-03 1.362462506928916846e+05
1.727027983833401585e-03 1.585518477145104414e-03 1.341431320715274487e+05
1.763277813998721886e-03 1.610375450621720104e-03 1.320725483876677172e+05
1.800288517872699516e-03 1.635621218317532969e-03 1.300339968672939722e+05
1.838076065979827841e-03 1.661261825977895052e-03 1.280269825095011911e+05
1.876656764061403323e-03 1.687303411967670721e-03 1.260510179663307208e+05
1.916047260111632686e-03 1.713752208635792047e-03 1.241056234244606458e+05
1.956264551561424231e-03 1.740614543697811519e-03 1.221903264887236146e+05
1.997325992612966096e-03 1.767896841636575024e-03 1.203046620674262376e+05
2.039249301728253416e-03 1.795605625121205699e-03 1.184481722594393505e+05
2.082052569274801812e-03 1.823747516444507296e-03 1.166204062430344056e+05
2.125754265331836028e-03 1.852329238978962051e-03 1.148209201664373104e+05
2.170373247660334261e-03 1.881357618651452934e-03 1.130492770400736335e+05
2.215928769840356215e-03 1.910839585436858177e-03 1.113050466304789297e+05
2.262440489579177223e-03 1.940782174870642326e-03 1.095878053558489191e+05
2.309928477193800688e-03 1.971192529580591268e-03 1.078971361832034600e+05
2.358413224271523837e-03 2.002077900837820681e-03 1.062326285271393426e+05
2.407915652512278206e-03 2.033445650127163520e-03 1.045938781501483900e+05
