# M_PBH = 30 M_solar.
# Columns: semi-major axis [pc], truncation radius [pc], decoupling redshift
1.000000000000000082e-05 2.487241271812887675e-05 2.657043472185932565e+06
1.018605732462411459e-05 2.521868281746084551e-05 2.620560398903601803e+06
1.037557638205285942e-05 2.556977351145253043e-05 2.584578276505184826e+06
1.056862158036062920e-05 2.592575190547916691e-05 2.549090226498411503e+06
1.076525852598128712e-05 2.628668603890319525e-05 2.514089464839320630e+06
1.096555404600439022e-05 2.665264489806806801e-05 2.479569300635408144e+06
1.116957621088646197e-05 2.702369842947285471e-05 2.445523134866559878e+06
1.137739435758473085e-05 2.739991755312979558e-05 2.411944459123563021e+06
1.158907911312130239e-05 2.778137417610742667e-05 2.378826854363940656e+06
1.180470241858573505e-05 2.816814120626199693e-05 2.346163989684862085e+06
1.202433755358432438e-05 2.856029256615980663e-05 2.313949621112892870e+06
1.224805916114404227e-05 2.895790320719257766e-05 2.282177590410395060e+06
1.247594327308007597e-05 2.936104912388936953e-05 2.250841823898285162e+06
1.270806733583522713e-05 2.976980736842714816e-05 2.219936331294967327e+06
1.294451023680006134e-05 3.018425606534289775e-05 2.189455204571217764e+06
1.318535233112291039e-05 3.060447442645043009e-05 2.159392616820765659e+06
1.343067546901841774e-05 3.103054276596383927e-05 2.129742821146426257e+06
1.368056302358444781e-05 3.146254251583160006e-05 2.100500149561486673e+06
1.393509991913641891e-05 3.190055624128339007e-05 2.071659011906195665e+06
1.419437266006884464e-05 3.234466765659287487e-05 2.043213894779132213e+06
1.445846936025382482e-05 3.279496164105939006e-05 2.015159360483244527e+06
1.472747977298668064e-05 3.325152425521183747e-05 1.987490045986348530e+06
1.500149532148844804e-05 3.371444275723720085e-05 1.960200661895925878e+06
1.528060912997618117e-05 3.418380561963745554e-05 1.933285991447979119e+06
1.556491605531120176e-05 3.465970254611783338e-05 1.906740889509773348e+06
1.585451271923618208e-05 3.514222448870932942e-05 1.880560281596280867e+06
1.614949754121218980e-05 3.563146366512940115e-05 1.854739162900109077e+06
1.644997077186635716e-05 3.612751357638310985e-05 1.829272597334779566e+06
1.675603452706219228e-05 3.663046902460898670e-05 1.804155716591123957e+06
1.706779282260364046e-05 3.714042613117271363e-05 1.779383719206632115e+06
1.738535160958487258e-05 3.765748235501166822e-05 1.754951869647595333e+06
1.770881881039772687e-05 3.818173651123436455e-05 1.730855497403839836e+06
1.803830435540930958e-05 3.871328878997792059e-05 1.707089996095894137e+06
1.837392022032160617e-05 3.925224077552719101e-05 1.683650822594421217e+06
1.871578046422660491e-05 3.979869546569944822e-05 1.660533496151731117e+06
1.906400126836923169e-05 4.035275729149770163e-05 1.637733597545232158e+06
1.941870097563154346e-05 4.091453213703718833e-05 1.615246768232627073e+06
1.978000013075171610e-05 4.148412735974808471e-05 1.593068709518718766e+06
2.014802152129094531e-05 4.206165181085823356e-05 1.571195181733666454e+06
2.052289021936299580e-05 4.264721585616071820e-05 1.549622003422499634e+06
2.090473362413990691e-05 4.324093139706877730e-05 1.528345050545787672e+06
2.129368150514863065e-05 4.384291189196346780e-05 1.507360255691261962e+06
2.168986604637318104e-05 4.445327237783669845e-05 1.486663607296285685e+06
2.209342189117754487e-05 4.507212949223521071e-05 1.466251148880974390e+06
2.250448618806398035e-05 4.569960149550804818e-05 1.446118978291874519e+06
2.292319863728313622e-05 4.633580829336329473e-05 1.426263246956000803e+06
2.334970153831113945e-05 4.698087145973685953e-05 1.406680159145138925e+06
2.378413983821006729e-05 4.763491425997887913e-05 1.387365971250232775e+06
2.422666118088838834e-05 4.829806167436153123e-05 1.368316991065736627e+06
2.467741595727749012e-05 4.897044042191201434e-05 1.349529577083813259e+06
2.513655735644224006e-05 4.965217898457675107e-05 1.331000137798197800e+06
2.560424141764226633e-05 5.034340763171991879e-05 1.312725131017636042e+06
2.608062708336191250e-05 5.104425844496177604e-05 1.294701063188742846e+06
2.656587625332681600e-05 5.175486534336079617e-05 1.276924488728166325e+06
2.706015383952574537e-05 5.247536410894549009e-05 1.259392009363903198e+06
2.756362782225566012e-05 5.320589241259873704e-05 1.242100273485688493e+06
2.807646930721003048e-05 5.394658984030161646e-05 1.225045975504280068e+06
2.859885258362908919e-05 5.469759791974052889e-05 1.208225855219548568e+06
2.913095518353197821e-05 5.545906014728260003e-05 1.191636697197246365e+06
2.967295794205127474e-05 5.623112201532499228e-05 1.175275330154328374e+06
3.022504505888947020e-05 5.701393104002220973e-05 1.159138626352725783e+06
3.078740416091950259e-05 5.780763678939820015e-05 1.143223501001425786e+06
3.136022636594970505e-05 5.861239091184680460e-05 1.127526911666777218e+06
3.194370634767516306e-05 5.942834716502734451e-05 1.112045857690880774e+06
3.253804240183784516e-05 6.025566144515961530e-05 1.096777379617974395e+06
3.314343651361703890e-05 6.109449181672448005e-05 1.081718558628691593e+06
3.376009442627432393e-05 6.194499854257536900e-05 1.066866515982087469e+06
3.438822571107533541e-05 6.280734411446642438e-05 1.052218412465326022e+06
3.502804383851262422e-05 6.368169328400266420e-05 1.037771447850927478e+06
3.567976625085360879e-05 6.456821309401878533e-05 1.023522860361459083e+06
3.634361443603829764e-05 6.546707291039102403e-05 1.009469926141589996e+06
3.701981400295226133e-05 6.637844445428992088e-05 9.956099587373785907e+05
3.770859475809943144e-05 6.730250183487792030e-05 9.819403085827272153e+05
3.841019078370212298e-05 6.823942158245955669e-05 9.684583624928764766e+05
3.912484051725378600e-05 6.918938268208974310e-05 9.551615431648578960e+05
3.985278683255233021e-05 7.015256660764672186e-05 9.420473086848006351e+05
4.059427712224031434e-05 7.112915735637474583e-05 9.291131520420183660e+05
4.134956338188170761e-05 7.211934148390519088e-05 9.163566006497510243e+05
4.211890229560253139e-05 7.312330813976069405e-05 9.037752158724961337e+05
4.290255532332495962e-05 7.414124910334967636e-05 8.913665925598294707e+05
4.370078878962455125e-05 7.517335882045801296e-05 8.791283585866243811e+05
4.451387397424057241e-05 7.621983444024413897e-05 8.670581743995887227e+05
4.534208720427079613e-05 7.728087585274539737e-05 8.551537325700201327e+05
4.618570994808079158e-05 7.835668572690103625e-05 8.434127573527145432e+05
4.704502891096131996e-05 7.944746954910070539e-05 8.318330042509193299e+05
4.792033613256498059e-05 8.055343566226395434e-05 8.204122595872700913e+05
4.881192908615632079e-05 8.167479530546000203e-05 8.091483400806045393e+05
4.972011077970754910e-05 8.281176265407164030e-05 7.980390924286097288e+05
5.064518985887624743e-05 8.396455486051506215e-05 7.870823928961773636e+05
5.158748071189853628e-05 8.513339209551988368e-05 7.762761469094231725e+05
5.254730357643393272e-05 8.631849758997791136e-05 7.656182886552803684e+05
5.352498464839818785e-05 8.752009767736907081e-05 7.551067806865862804e+05
5.452085619282085154e-05 8.873842183677104292e-05 7.447396135325987125e+05
5.553525665676609422e-05 8.997370273646236507e-05 7.345148053148481995e+05
5.656853078435324198e-05 9.122617627812410694e-05 7.244304013682825025e+05
5.762102973391860426e-05 9.249608164165187070e-05 7.144844738675953122e+05
5.869311119735643947e-05 9.378366133058277788e-05 7.046751214587008581e+05
5.978513952168101712e-05 9.508916121814945028e-05 6.950004688952532597e+05
6.089748583284936354e-05 9.641283059396510500e-05 6.854586666801741812e+05
6.203052816188885869e-05 9.775492221135247584e-05 6.760478907120892545e+05
6.318465157337104659e-05 9.911569233532305267e-05 6.667663419366225135e+05
6.436024829627587428e-05 1.004954007912148110e-04 6.576122460024844622e+05
6.555771785729076425e-05 1.018943110139995586e-04 6.485838529222747311e+05
6.677746721658963682e-05 1.033126900982667015e-04 6.396794367379470496e+05
6.801991090613895689e-05 1.047508088488941787e-04 6.308972951908641262e+05
6.928547117057564395e-05 1.062089418324139084e-04 6.222357493963892339e+05
7.057457811070750437e-05 1.076873674290834839e-04 6.136931435229389463e+05
7.188766982968288822e-05 1.091863678856715733e-04 6.052678444754463853e+05
7.322519258187999941e-05 1.107062293689676060e-04 5.969582415831704857e+05
7.458760092456700650e-05 1.122472420200256002e-04 5.887627462917892262e+05
7.597535787238262413e-05 1.138097000091501401e-04 5.806797918597281678e+05
7.738893505469214768e-05 1.153939015916378931e-04 5.727078330586481607e+05
7.882881287587068474e-05 1.170001491642807786e-04 5.648453458780554356e+05
8.029548067856864726e-05 1.186287493226444097e-04 5.570908272339603864e+05
8.178943691001464966e-05 1.202800129191296540e-04 5.494427946815413889e+05
8.331118929141366860e-05 1.219542551218296051e-04 5.418997861317496281e+05
8.486125499049504048e-05 1.236517954741901660e-04 5.344603595718129072e+05
8.644016079727267891e-05 1.253729579554882685e-04 5.271230927895681234e+05
8.804844330307456826e-05 1.271180710421358090e-04 5.198865831015838194e+05
8.968664908290319745e-05 1.288874677698210341e-04 5.127494470850167563e+05
9.135533488118988523e-05 1.306814857964998201e-04 5.057103203131448827e+05
9.305506780100330588e-05 1.325004674662452601e-04 4.987678570945399697e+05
9.478642549678034386e-05 1.343447598739697633e-04 4.919207302158151288e+05
9.654999637064174084e-05 1.362147149310303455e-04 4.851676306879057083e+05
9.834637977236070463e-05 1.381106894317273828e-04 4.785072674958365969e+05
1.001761862030517680e-04 1.400330451207103830e-04 4.719383673519235454e+05
1.020400375226504654e-04 1.419821487613026438e-04 4.654596744523613015e+05
1.039385671612513335e-04 1.439583722047547217e-04 4.590699502371593262e+05
1.058724203343799653e-04 1.459620924604416970e-04 4.527679731533699087e+05
1.078422542622693085e-04 1.479936917670152162e-04 4.465525384215672966e+05
1.098487383932164531e-04 1.500535576645231021e-04 4.404224578055344173e+05
1.118925546310939464e-04 1.521420830675084869e-04 4.343765593851127196e+05
1.139743975670958522e-04 1.542596663391030234e-04 4.284136873321682215e+05
1.160949747157937584e-04 1.564067113661243922e-04 4.225327016896386631e+05
1.182550067555862555e-04 1.585836276351948297e-04 4.167324781536083319e+05
1.204552277736212375e-04 1.607908303098901082e-04 4.110119078583808732e+05
1.226963855152759446e-04 1.630287403089361001e-04 4.053698971644982230e+05
1.249792416382780689e-04 1.652977843854627098e-04 3.998053674496747553e+05
1.273045719715549574e-04 1.675983952073320331e-04 3.943172549025998451e+05
1.296731667788995185e-04 1.699310114385530770e-04 3.889045103195714764e+05
1.320858310275412626e-04 1.722960778217974868e-04 3.835660989039230626e+05
1.345433846617149858e-04 1.746940452620308361e-04 3.783010000682028476e+05
1.370466628813180488e-04 1.771253709112720830e-04 3.731082072390725953e+05
1.395965164257541530e-04 1.795905182544983508e-04 3.679867276648823172e+05
1.421938118630563684e-04 1.820899571967079611e-04 3.629355822258879780e+05
1.448394318843908670e-04 1.846241641511566292e-04 3.579538052470757393e+05
1.475342756040393740e-04 1.871936221287825129e-04 3.530404443135560141e+05
1.502792588649636604e-04 1.897988208288351332e-04 3.481945600884910673e+05
1.530753145500546710e-04 1.924402567307230188e-04 3.434152261335241492e+05
1.559233928991724839e-04 1.951184331870947403e-04 3.387015287316752947e+05
1.588244618320859569e-04 1.978338605181720604e-04 3.340525667126658373e+05
1.617795072774200725e-04 2.005870561073480791e-04 3.294674512806429993e+05
1.647895335077245000e-04 2.033785444980670126e-04 3.249453058442702750e+05
1.678555634807746657e-04 2.062088574920016007e-04 3.204852658491514740e+05
1.709786391872252724e-04 2.090785342485465179e-04 3.160864786125532119e+05
1.741598220047299735e-04 2.119881213856411530e-04 3.117481031603989541e+05
1.774001930586512077e-04 2.149381730819395898e-04 3.074693100665019010e+05
1.807008535894804311e-04 2.179292511803473074e-04 3.032492812940014410e+05
1.840629253270955191e-04 2.209619252929358191e-04 2.990872100389819243e+05
1.874875508719802905e-04 2.240367729072585072e-04 2.949823005762344692e+05
1.909758940835371260e-04 2.271543794940798517e-04 2.909337681071400875e+05
1.945291404756252529e-04 2.303153386165400604e-04 2.869408386096382164e+05
1.981484976194574006e-04 2.335202520407691422e-04 2.830027486902574892e+05
2.018351955539938233e-04 2.367697298479702638e-04 2.791187454381770804e+05
2.055904872039697288e-04 2.400643905479888708e-04 2.752880862812933628e+05
2.094156488057036204e-04 2.434048611943883333e-04 2.715100388442605617e+05
2.133119803408248672e-04 2.467917775010464577e-04 2.677838808084831689e+05
2.172808059780734593e-04 2.502257839602955222e-04 2.641088997740287450e+05
2.213234745233183933e-04 2.537075339626213401e-04 2.604843931234380289e+05
2.254413598779503823e-04 2.572376899179421158e-04 2.569096678874039208e+05
2.296358615058017617e-04 2.608169233784846000e-04 2.533840406122959976e+05
2.339084049087541061e-04 2.644459151632777127e-04 2.499068372295032023e+05
2.382604421111958102e-04 2.681253554842819562e-04 2.464773929265711631e+05
2.426934521534923432e-04 2.718559440741761396e-04 2.430950520201077452e+05
2.472089415946392903e-04 2.756383903158187614e-04 2.397591678304341331e+05
2.518084450242648472e-04 2.794734133734027540e-04 2.364691025579590059e+05
2.564935255841621826e-04 2.833617423253285798e-04 2.332242271612467302e+05
2.612657754995218037e-04 2.873041162988106416e-04 2.300239212367619621e+05
2.661268166200503825e-04 2.913012846062385279e-04 2.268675729002655135e+05
2.710783009711559928e-04 2.953540068833151577e-04 2.237545786698377342e+05
2.761219113153901158e-04 2.994630532289919360e-04 2.206843433505075809e+05
2.812593617243339832e-04 3.036292043472176710e-04 2.176562799204682815e+05
2.864923981611255509e-04 3.078532516905284669e-04 2.146698094188523246e+05
2.918227990738261630e-04 3.121359976054943123e-04 2.117243608350494760e+05
2.972523759998255328e-04 3.164782554800458386e-04 2.088193709995432873e+05
3.027829741814944543e-04 3.208808498927024971e-04 2.059542844762468885e+05
3.084164731932882600e-04 3.253446167637214555e-04 2.031285534563172841e+05
3.141547875805230706e-04 3.298704035081917148e-04 2.003416376534270239e+05
3.199998675100320278e-04 3.344590691910925297e-04 1.975930042004741554e+05
3.259536994329308179e-04 3.391114846843376542e-04 1.948821275477109884e+05
3.320183067597129055e-04 3.438285328258300225e-04 1.922084893622703967e+05
3.381957505479066587e-04 3.486111085805469788e-04 1.895715784290718439e+05
3.444881302025254639e-04 3.534601192036754074e-04 1.869708905530890916e+05
3.508975841895500044e-04 3.583764844058247366e-04 1.844059284629583126e+05
3.574262907626872998e-04 3.633611365203326155e-04 1.818762017159115640e+05
3.640764687036496380e-04 3.684150206726956810e-04 1.793812266040124232e+05
3.708503780762092712e-04 3.735390949521345772e-04 1.769205260616826126e+05
3.777503209942790021e-04 3.787343305853278666e-04 1.744936295744958043e+05
3.847786424042886266e-04 3.840017121123308255e-04 1.721000730892240535e+05
3.919377308821127238e-04 3.893422375647006997e-04 1.697393989251207095e+05
3.992300194448299535e-04 3.947569186458573139e-04 1.674111556864192826e+05
4.066579863775833916e-04 4.002467809136928036e-04 1.651148981760358147e+05
4.142241560758272672e-04 4.058128639654650033e-04 1.628501873104532424e+05
4.219310999032423182e-04 4.114562216249814815e-04 1.606165900357778301e+05
4.297814370656130958e-04 4.171779221321119009e-04 1.584136792449456407e+05
4.377778355009666225e-04 4.229790483346428510e-04 1.562410336960665300e+05
4.459230127862707734e-04 4.288606978825005244e-04 1.540982379318890162e+05
4.542197370610046329e-04 4.348239834243642753e-04 1.519848822003708046e+05
4.626708279679081427e-04 4.408700328066900891e-04 1.499005623763406766e+05
4.712791576112414530e-04 4.469999892751744816e-04 1.478448798842341930e+05
4.800476515328668762e-04 4.532150116786714611e-04 1.458174416218919214e+05
4.889792897064963772e-04 4.595162746755929086e-04 1.438178598854029260e+05
4.980771075504349023e-04 4.659049689428128153e-04 1.418457522949797858e+05
5.073441969591695275e-04 4.723823013870950545e-04 1.399007417218519840e+05
5.167837073541489299e-04 4.789494953590702213e-04 1.379824562161625654e+05
5.263988467541134107e-04 4.856077908697815980e-04 1.360905289358548180e+05
5.361928828653423620e-04 4.923584448098245305e-04 1.342245980765351560e+05
5.461691441921835786e-04 4.992027311710984074e-04 1.323843068022989319e+05
5.563310211682475715e-04 5.061419412711985625e-04 1.305693031775051786e+05
5.666819673086436436e-04 5.131773839804586179e-04 1.287792400994895725e+05
5.772255003836612676e-04 5.203103859516786675e-04 1.270137752321994631e+05
5.879652036142812236e-04 5.275422918525492742e-04 1.252725709407409886e+05
5.989047268899358673e-04 5.348744646008006098e-04 1.235552942268238839e+05
6.100477880089230425e-04 5.423082856020884461e-04 1.218616166650936357e+05
6.213981739419024422e-04 5.498451549906494158e-04 1.201912143403360387e+05
6.329597421188964956e-04 5.574864918727325891e-04 1.185437677855453803e+05
6.447364217402377050e-04 5.652337345728373997e-04 1.169189619208419317e+05
6.567322151119090118e-04 5.730883408827754837e-04 1.153164859932274412e+05
6.689511990057274643e-04 5.810517883135685744e-04 1.137360335171691404e+05
6.813975260448373915e-04 5.891255743502148709e-04 1.121773022159973480e+05
6.940754261149760388e-04 5.973112167093272418e-04 1.106399939641092351e+05
7.069892078020055190e-04 6.056102535996741622e-04 1.091238147299647680e+05
7.201432598561819482e-04 6.140242439856320603e-04 1.076284745198657620e+05
7.335420526836750272e-04 6.225547678535723814e-04 1.061536873225062154e+05
7.471901398658348497e-04 6.312034264811972484e-04 1.046991710542838264e+05
7.610921597067296087e-04 6.399718427098413914e-04 1.032646475053619361e+05
7.752528368094720136e-04 6.488616612197508618e-04 1.018498422864725289e+05
7.896769836818746773e-04 6.578745488083631446e-04 1.004544847764484584e+05
8.043695023719837304e-04 6.670121946715946298e-04 9.907830807047626877e+04
8.193353861340390513e-04 6.762763106881552848e-04 9.772104892905900488e+04
8.345797211254356307e-04 6.856686317068994181e-04 9.638244772767943505e+04
8.501076881352486641e-04 6.951909158372235938e-04 9.506224840715478058e+04
8.659245643449323430e-04 7.048449447425352227e-04 9.376019842467144190e+04
8.820357251217643716e-04 7.146325239367863017e-04 9.247604870549277985e+04
8.984466458456690559e-04 7.245554830840911665e-04 9.120955359532959119e+04
9.151629037700236263e-04 7.346156763014443031e-04 8.996047081336315023e+04
9.321901799170913749e-04 7.448149824645299791e-04 8.872856140591419535e+04
9.495342610087160844e-04 7.551553055166484139e-04 8.751358970074658282e+04
9.672010414329379165e-04 7.656385747807498143e-04 8.631532326199903036e+04
9.851965252472049198e-04 7.762667452745979600e-04 8.513353284573416749e+04
1.003526828218850950e-03 7.870417980290534722e-04 8.396799235609825701e+04
1.022198179903543221e-03 7.979657404094888003e-04 8.281847880208211427e+04
1.041216925762391415e-03 8.090406064403339505e-04 8.168477225487542455e+04
1.060589529318461044e-03 8.202684571327589205e-04 8.056665580580571259e+04
1.080322574353395453e-03 8.316513808154813456e-04 7.946391552485521242e+04
1.100422767144917241e-03 8.431914934687135621e-04 7.837634041974601860e+04
1.120896938745962173e-03 8.548909390612382435e-04 7.730372239558666479e+04
1.141752047306205612e-03 8.667518898906027445e-04 7.624585621507282485e+04
1.162995180436794196e-03 8.787765469264398506e-04 7.520253945923343417e+04
1.184633557619075303e-03 8.909671401569048497e-04 7.417357248871498450e+04
1.206674532658130522e-03 9.033259289382063748e-04 7.315875840559783683e+04
1.229125596181971812e-03 9.158552023472435943e-04 7.215790301573534089e+04
1.251994378187235631e-03 9.285572795373252470e-04 7.117081479160964955e+04
1.275288650632229372e-03 9.414345100969533911e-04 7.019730483569744683e+04
1.299016330078242576e-03 9.544892744116719764e-04 6.923718684433744056e+04
